0 0
0.05 0.00827
0.1 0.01663
0.15 0.02165
0.2 0.02548
0.25 0.03
0.3 0.03516
0.35 0.04011
0.4 0.04516
0.45 0.04613
0.5 0.04379
0.55 0.03974
0.6 0.04259
0.65 0.04549
0.7 0.0487
0.75 0.04922
0.8 0.0528
0.85 0.05098
0.9 0.04673
0.95 0.04073
1 0.04105
1.05 0.03986
1.1 0.03517
1.15 0.0326
1.2 0.03133
1.25 0.03548
1.3 0.03406
1.35 0.03769
1.4 0.04365
1.45 0.0484
1.5 0.05459
1.55 0.05435
1.6 0.05048
1.65 0.04565
1.7 0.04602
1.75 0.045
1.8 0.04415
1.85 0.04098
1.9 0.03579
1.95 0.03088
2 0.02384
2.05 0.01815
2.1 0.01478
2.15 0.01092
2.2 0.0109
2.25 0.01257
2.3 0.01174
2.35 0.01098
2.4 0.01246
2.45 0.01068
2.5 0.00994
2.55 0.00813
2.6 0.00922
2.65 0.00735
2.7 0.00573
2.75 0.00968
2.8 0.01652
2.85 0.01809
2.9 0.0202
2.95 0.02337
3 0.02344
3.05 0.02022
3.1 0.01722
3.15 0.01379
3.2 0.01608
3.25 0.01832
3.3 0.01605
3.35 0.01925
3.4 0.02038
3.45 0.02028
3.5 0.02363
3.55 0.02784
3.6 0.03048
3.65 0.03366
3.7 0.03898
3.75 0.04006
3.8 0.04377
3.85 0.04533
3.9 0.04679
3.95 0.04517
4 0.04031
4.05 0.0357
4.1 0.03062
4.15 0.02222
4.2 0.01762
4.25 0.01335
4.3 0.01087
4.35 0.00744
4.4 0.00567
4.45 -0.0012
4.5 -0.01236
4.55 -0.0245
4.6 -0.03941
4.65 -0.05204
4.7 -0.06978
4.75 -0.08652
4.8 -0.10276
4.85 -0.12149
4.9 -0.14395
4.95 -0.17549
5 -0.21805
5.05 -0.2675
5.1 -0.32373
5.15 -0.38565
5.2 -0.45585
5.25 -0.53054
5.3 -0.61033
5.35 -0.69393
5.4 -0.78173
5.45 -0.87506
5.5 -0.96544
5.55 -1.05558
5.6 -1.14429
5.65 -1.23841
5.7 -1.33607
5.75 -1.43158
5.8 -1.52634
5.85 -1.62357
5.9 -1.71305
5.95 -1.7994
6 -1.88137
6.05 -1.95868
6.1 -2.03387
6.15 -2.10455
6.2 -2.16819
6.25 -2.23186
6.3 -2.28811
6.35 -2.33791
6.4 -2.38512
6.45 -2.427
6.5 -2.46342
6.55 -2.48776
6.6 -2.50314
6.65 -2.50645
6.7 -2.49824
6.75 -2.47578
6.8 -2.4396
6.85 -2.39005
6.9 -2.324
6.95 -2.23902
7 -2.13784
7.05 -2.02026
7.1 -1.8864
7.15 -1.73694
7.2 -1.57431
7.25 -1.39879
7.3 -1.21791
7.35 -1.03073
7.4 -0.83741
7.45 -0.64121
7.5 -0.43864
7.55 -0.22978
7.6 -0.0266
7.65 0.17167
7.7 0.36753
7.75 0.55323
7.8 0.73728
7.85 0.91396
7.9 1.0816
7.95 1.23593
8 1.37975
8.05 1.50867
8.1 1.62156
8.15 1.72112
8.2 1.81287
8.25 1.89318
8.3 1.96363
8.35 2.02452
8.4 2.08065
8.45 2.12882
8.5 2.16768
8.55 2.19674
8.6 2.21717
8.65 2.23503
8.7 2.24081
8.75 2.23986
8.8 2.23748
8.85 2.23312
8.9 2.22607
8.95 2.21732
9 2.20441
9.05 2.19181
9.1 2.17562
9.15 2.16025
9.2 2.14725
9.25 2.13436
9.3 2.1121
9.35 2.08431
9.4 2.0587
9.45 2.03279
9.5 2.00219
9.55 1.97309
9.6 1.94539
9.65 1.91627
9.7 1.89149
9.75 1.86429
9.8 1.83031
9.85 1.79291
9.9 1.75497
9.95 1.71879
10 1.67859
10.05 1.64462
10.1 1.60575
10.15 1.56385
10.2 1.52089
10.25 1.48265
10.3 1.44418
10.35 1.40603
10.4 1.36286
10.45 1.31477
10.5 1.27193
10.55 1.22663
10.6 1.17999
10.65 1.13726
10.7 1.09123
10.75 1.04395
10.8 0.99978
10.85 0.95696
10.9 0.9098
10.95 0.86341
11 0.81535
11.05 0.76694
11.1 0.71783
11.15 0.66755
11.2 0.6254
11.25 0.58402
11.3 0.54375
11.35 0.5042
11.4 0.46224
11.45 0.42361
11.5 0.38222
11.55 0.34667
11.6 0.30655
11.65 0.27039
11.7 0.23524
11.75 0.19838
11.8 0.16483
11.85 0.13319
11.9 0.0995
11.95 0.06734
12 0.04169
12.05 0.01348
12.1 -0.01285
12.15 -0.0378
12.2 -0.06326
12.25 -0.08627
12.3 -0.11253
12.35 -0.13886
12.4 -0.16159
12.45 -0.17932
12.5 -0.1955
12.55 -0.21415
12.6 -0.22669
12.65 -0.24131
12.7 -0.25025
12.75 -0.26043
12.8 -0.27382
12.85 -0.2825
12.9 -0.29068
12.95 -0.29934
13 -0.30489
13.05 -0.30796
13.1 -0.31645
13.15 -0.32523
13.2 -0.33343
13.25 -0.34417
13.3 -0.35627
13.35 -0.36424
13.4 -0.36766
13.45 -0.37477
13.5 -0.37675
13.55 -0.37689
13.6 -0.37685
13.65 -0.37212
13.7 -0.36572
13.75 -0.36051
13.8 -0.3589
13.85 -0.36251
13.9 -0.36628
13.95 -0.37032
14 -0.36894
14.05 -0.37172
14.1 -0.37211
14.15 -0.37204
14.2 -0.3742
14.25 -0.37733
14.3 -0.37999
14.35 -0.38209
14.4 -0.37947
14.45 -0.37194
14.5 -0.36131
14.55 -0.34739
14.6 -0.33708
14.65 -0.33258
14.7 -0.3303
14.75 -0.33029
14.8 -0.33249
14.85 -0.33187
14.9 -0.32697
14.95 -0.31727
15 -0.31174
15.05 -0.30623
15.1 -0.29915
15.15 -0.29245
15.2 -0.28635
15.25 -0.28444
15.3 -0.27788
15.35 -0.27494
15.4 -0.27157
15.45 -0.26369
15.5 -0.25736
15.55 -0.25009
15.6 -0.24261
15.65 -0.23422
15.7 -0.22974
15.75 -0.23066
15.8 -0.22774
15.85 -0.22823
15.9 -0.22934
15.95 -0.23128
16 -0.22954
16.05 -0.2243
16.1 -0.2156
16.15 -0.20881
16.2 -0.20689
16.25 -0.2069
16.3 -0.20702
16.35 -0.20349
16.4 -0.20371
16.45 -0.20609
16.5 -0.20599
16.55 -0.20235
16.6 -0.19735
16.65 -0.19568
16.7 -0.18924
16.75 -0.17892
16.8 -0.1758
16.85 -0.1708
16.9 -0.16841
16.95 -0.16226
17 -0.15478
17.05 -0.14617
17.1 -0.14569
17.15 -0.14446
17.2 -0.1419
17.25 -0.1386
17.3 -0.13441
17.35 -0.13011
17.4 -0.12703
17.45 -0.12563
17.5 -0.12505
17.55 -0.12534
17.6 -0.12948
17.65 -0.12805
17.7 -0.12326
17.75 -0.1178
17.8 -0.11098
17.85 -0.10855
17.9 -0.11261
17.95 -0.11163
18 -0.11044
18.05 -0.11253
18.1 -0.111
18.15 -0.11333
18.2 -0.1176
18.25 -0.11902
18.3 -0.1215
18.35 -0.12347
18.4 -0.12605
18.45 -0.12907
18.5 -0.12705
18.55 -0.12564
18.6 -0.12394
18.65 -0.11877
18.7 -0.10983
18.75 -0.09903
18.8 -0.09566
18.85 -0.08853
18.9 -0.0841
18.95 -0.08544
19 -0.08638
19.05 -0.08684
19.1 -0.08342
19.15 -0.08018
19.2 -0.07458
19.25 -0.06702
19.3 -0.06745
19.35 -0.07262
19.4 -0.07973
19.45 -0.08186
19.5 -0.08021
19.55 -0.07993
19.6 -0.08163
19.65 -0.08178
19.7 -0.08016
19.75 -0.07398
19.8 -0.06634
19.85 -0.06132
19.9 -0.05459
19.95 -0.04673
20 -0.04065
20.05 -0.03785
20.1 -0.03725
20.15 -0.04271
20.2 -0.04935
20.25 -0.05866
20.3 -0.06145
20.35 -0.05842
20.4 -0.0542
20.45 -0.0503
20.5 -0.05276
20.55 -0.05683
20.6 -0.05649
20.65 -0.05484
20.7 -0.05189
20.75 -0.04872
20.8 -0.04822
20.85 -0.0464
20.9 -0.04798
20.95 -0.04553
21 -0.04686
21.05 -0.04678
21.1 -0.04842
21.15 -0.05354
21.2 -0.05942
21.25 -0.06209
21.3 -0.05849
21.35 -0.05644
21.4 -0.05753
21.45 -0.05243
21.5 -0.05098
21.55 -0.05086
21.6 -0.04806
21.65 -0.04263
21.7 -0.03739
21.75 -0.03381
21.8 -0.03118
21.85 -0.03218
21.9 -0.0294
21.95 -0.03233
22 -0.03893
22.05 -0.04354
22.1 -0.04211
22.15 -0.04494
22.2 -0.0415
22.25 -0.04089
22.3 -0.04278
22.35 -0.04304
22.4 -0.04054
22.45 -0.04042
22.5 -0.04037
22.55 -0.03904
22.6 -0.03862
22.65 -0.0363
22.7 -0.0317
22.75 -0.03045
22.8 -0.03168
22.85 -0.03215
22.9 -0.03128
22.95 -0.03149
23 -0.02854
23.05 -0.0259
23.1 -0.02423
23.15 -0.02223
23.2 -0.0177
23.25 -0.01936
23.3 -0.02363
23.35 -0.02924
23.4 -0.03202
23.45 -0.03125
23.5 -0.03252
23.55 -0.03542
23.6 -0.03221
23.65 -0.02582
23.7 -0.02277
23.75 -0.02338
23.8 -0.02347
23.85 -0.02461
23.9 -0.02233
23.95 -0.02165
24 -0.02503
24.05 -0.02383
24.1 -0.01939
24.15 -0.01379
24.2 -0.01368
24.25 -0.01252
24.3 -0.00913
24.35 -0.00855
24.4 -0.01131
24.45 -0.01511
24.5 -0.02138
24.55 -0.022
24.6 -0.02265
24.65 -0.01873
24.7 -0.01595
24.75 -0.01658
24.8 -0.01899
24.85 -0.02198
24.9 -0.02376
24.95 -0.0242
25 -0.02124
25.05 -0.01774
25.1 -0.01879
25.15 -0.01442
25.2 -0.01438
25.25 -0.01811
25.3 -0.02115
25.35 -0.02335
25.4 -0.02533
25.45 -0.02303
25.5 -0.02389
25.55 -0.02075
25.6 -0.01736
25.65 -0.01703
25.7 -0.01982
25.75 -0.01668
25.8 -0.01086
25.85 -0.00779
25.9 -0.00392
25.95 -0.00614
26 -0.0105
26.05 -0.01292
26.1 -0.01438
26.15 -0.01386
26.2 -0.01382
26.25 -0.01174
26.3 -0.00676
26.35 -0.00551
26.4 -0.00706
26.45 -0.00645
26.5 -0.01061
26.55 -0.01335
26.6 -0.01232
26.65 -0.01206
26.7 -0.01264
26.75 -0.01235
26.8 -0.01184
26.85 -0.01223
26.9 -0.00803
26.95 -0.00077
27 0.00193
27.05 0.00442
27.1 0.00311
27.15 0.00209
27.2 -0.00359
27.25 -0.00841
27.3 -0.01563
27.35 -0.0224
27.4 -0.02389
27.45 -0.02509
27.5 -0.02855
27.55 -0.02767
27.6 -0.02582
27.65 -0.02089
27.7 -0.01193
27.75 -0.00639
27.8 -0.00609
27.85 -0.00584
27.9 -0.00264
27.95 -0.00209
28 -0.00418
28.05 -0.00772
28.1 -0.0092
28.15 -0.00892
28.2 -0.0049
28.25 0.00195
28.3 0.00977
28.35 0.01111
28.4 0.01262
28.45 0.01097
28.5 0.00772
28.55 0.00375
28.6 -0.00215
28.65 -0.00872
28.7 -0.00846
28.75 -0.00861
28.8 -0.00984
28.85 -0.01195
28.9 -0.00809
28.95 -0.00929
29 -0.01061
29.05 -0.01283
29.1 -0.00969
29.15 -0.00273
29.2 0.00035
29.25 -0.00003
29.3 -0.00253
29.35 -0.00409
29.4 -0.00713
29.45 -0.01093
29.5 -0.01544
29.55 -0.01882
29.6 -0.02054
29.65 -0.01603
29.7 -0.01174
29.75 -0.00418
29.8 0.00159
29.85 0.00144
29.9 0.00126
29.95 -0.00056
30 -0.00046
30.05 -0.00341
30.1 -0.00706
30.15 -0.00869
30.2 -0.01053
30.25 -0.01111
30.3 -0.01407
30.35 -0.01548
30.4 -0.01284
30.45 -0.0074
30.5 -0.00404
30.55 -0.00311
30.6 -0.00405
30.65 -0.00747
30.7 -0.00907
30.75 -0.01051
30.8 -0.00698
30.85 -0.00632
30.9 -0.00284
30.95 0.00289
31 0.00737
31.05 0.01224
31.1 0.0169
31.15 0.02245
31.2 0.02697
31.25 0.02981
31.3 0.03003
31.35 0.02946
31.4 0.02216
31.45 0.01847
31.5 0.01836
31.55 0.01639
31.6 0.01801
31.65 0.01381
31.7 0.00822
31.75 0.00423
31.8 0.00044
31.85 -0.00009
31.9 -0.00295
31.95 -0.00869
32 -0.00873
32.05 -0.00829
32.1 -0.00467
32.15 -0.00614
32.2 -0.00785
32.25 -0.01103
32.3 -0.00966
32.35 -0.00563
32.4 0.00176
32.45 0.00749
32.5 0.00831
32.55 0.0088
32.6 0.01325
32.65 0.0159
32.7 0.01862
32.75 0.01559
32.8 0.01604
32.85 0.01303
32.9 0.01396
32.95 0.01622
33 0.01792
33.05 0.02198
33.1 0.01938
33.15 0.01515
33.2 0.00893
33.25 0.00178
33.3 -0.00309
33.35 -0.00355
33.4 -0.00246
33.45 -0.00051
33.5 0.00398
33.55 0.0027
33.6 -0.00254
33.65 -0.00556
33.7 -0.00951
33.75 -0.01027
33.8 -0.01261
33.85 -0.01256
33.9 -0.01532
33.95 -0.01217
34 -0.01308
34.05 -0.01455
34.1 -0.01423
34.15 -0.01567
34.2 -0.01749
34.25 -0.01502
34.3 -0.0146
34.35 -0.01093
34.4 -0.0063
34.45 -0.00524
34.5 -0.00313
34.55 -0.00024
34.6 -0.00111
34.65 0.00228
34.7 0.00827
34.75 0.00709
34.8 0.00445
34.85 0.00224
34.9 0.00127
34.95 0.00449
35 0.00765
35.05 0.00569
35.1 0.0027
35.15 -0.00166
35.2 -0.0052
35.25 -0.00878
35.3 -0.01228
35.35 -0.01217
35.4 -0.01305
35.45 -0.0107
35.5 -0.0042
35.55 0.0011
35.6 0.0066
35.65 0.00804
35.7 0.01144
35.75 0.009
35.8 0.00207
35.85 -0.0018
35.9 -0.0013
35.95 0.00122
36 -0.0017
36.05 -0.00069
36.1 -0.00366
36.15 -0.00377
36.2 -0.00712
36.25 -0.01182
36.3 -0.01003
36.35 -0.01186
36.4 -0.01385
36.45 -0.01761
36.5 -0.02255
36.55 -0.02065
36.6 -0.01421
36.65 -0.00879
36.7 -0.00351
36.75 0.00286
36.8 0.00802
36.85 0.01491
36.9 0.01526
36.95 0.01537
37 0.01302
37.05 0.0091
37.1 0.01024
37.15 0.00752
37.2 0.00385
37.25 0.00121
37.3 -0.00453
37.35 -0.01103
37.4 -0.01873
37.45 -0.01798
37.5 -0.01831
37.55 -0.01901
37.6 -0.01735
37.65 -0.0155
37.7 -0.0088
37.75 -0.00465
37.8 0.00136
37.85 0.00118
37.9 -0.00122
37.95 -0.00479
38 -0.0032
38.05 0.00205
38.1 0.00836
38.15 0.01454
38.2 0.01523
38.25 0.0113
38.3 0.00848
38.35 0.003
38.4 0.0033
38.45 0.00769
38.5 0.01123
38.55 0.01585
38.6 0.01965
38.65 0.01638
38.7 0.01543
38.75 0.00939
38.8 0.0084
38.85 0.00624
38.9 0.00184
38.95 -0.00448
39 -0.01036
39.05 -0.01753
39.1 -0.02273
39.15 -0.026
39.2 -0.02309
39.25 -0.01924
39.3 -0.01724
39.35 -0.01639
39.4 -0.01417
39.45 -0.01552
39.5 -0.01769
39.55 -0.01999
39.6 -0.01623
39.65 -0.01476
39.7 -0.01216
39.75 -0.0064
39.8 -0.00374
39.85 -0.0028
39.9 -0.00089
39.95 0.0002
40 0.00515
40.05 0.0086
40.1 0.01437
40.15 0.02065
40.2 0.02375
40.25 0.02836
40.3 0.03255
40.35 0.03477
40.4 0.03481
40.45 0.02802
40.5 0.02098
40.55 0.01503
40.6 0.00628
40.65 0.00116
40.7 -0.00433
40.75 -0.00952
40.8 -0.01615
40.85 -0.02287
40.9 -0.02457
40.95 -0.02258
41 -0.02125
41.05 -0.02314
41.1 -0.02103
41.15 -0.01541
41.2 -0.00957
41.25 -0.00134
41.3 -0.00024
41.35 0.00269
41.4 0.00547
41.45 0.01026
41.5 0.01585
41.55 0.01876
41.6 0.02365
41.65 0.02784
41.7 0.02551
41.75 0.01744
41.8 0.01166
41.85 0.01021
41.9 0.01254
41.95 0.01726
42 0.01697
42.05 0.01495
42.1 0.0081
42.15 0.00034
42.2 -0.00292
42.25 -0.00817
42.3 -0.01263
42.35 -0.01666
42.4 -0.02183
42.45 -0.02055
42.5 -0.01782
42.55 -0.01361
42.6 -0.01232
42.65 -0.00742
42.7 -0.00042
42.75 -0.0005
42.8 -0.0013
42.85 -0.00173
42.9 -0.00491
42.95 -0.00413
43 -0.00762
43.05 -0.00624
43.1 -0.00116
43.15 0.00654
43.2 0.01132
43.25 0.01323
43.3 0.01784
43.35 0.01525
43.4 0.01572
43.45 0.01217
43.5 0.00597
43.55 0.00126
43.6 -0.00534
43.65 -0.0095
43.7 -0.00825
43.75 -0.00543
43.8 -0.00165
43.85 0.00072
43.9 0.00099
43.95 -0.0026
44 -0.00767
44.05 -0.014
44.1 -0.01963
44.15 -0.01726
44.2 -0.01039
44.25 -0.00626
44.3 -0.0018
44.35 -0.00294
44.4 -0.00202
44.45 0.00314
44.5 0.00788
44.55 0.00737
44.6 0.01068
44.65 0.01608
44.7 0.01819
44.75 0.01837
44.8 0.02042
44.85 0.02071
44.9 0.02328
44.95 0.02237
45 0.0243
45.05 0.01902
45.1 0.00972
45.15 -0.0003
45.2 -0.00662
45.25 -0.00594
45.3 -0.00255
45.35 -0.00319
45.4 -0.00759
45.45 -0.00873
45.5 -0.00553
45.55 0.00121
45.6 0.00599
45.65 0.01005
45.7 0.01082
45.75 0.00921
45.8 0.00492
45.85 0.002
45.9 0.00056
45.95 0.00169
46 0.00421
46.05 0.00356
46.1 0.00219
46.15 -0.00032
46.2 0.00118
46.25 -0.00254
46.3 -0.00134
46.35 0.00117
46.4 -0.0017
46.45 -0.0019
46.5 -0.00665
46.55 -0.00975
46.6 -0.01232
46.65 -0.01549
46.7 -0.01952
46.75 -0.01958
46.8 -0.01518
46.85 -0.01267
46.9 -0.00716
46.95 -0.00092
47 0.00272
47.05 0.00715
47.1 0.00796
47.15 0.00447
47.2 -0.00277
47.25 -0.00923
47.3 -0.01302
47.35 -0.01319
47.4 -0.01367
47.45 -0.01157
47.5 -0.00772
47.55 -0.00172
47.6 0.00346
47.65 0.00802
47.7 0.01456
47.75 0.02146
47.8 0.02011
47.85 0.01766
47.9 0.01002
47.95 0.00717
48 0.00123
48.05 -0.00606
48.1 -0.00998
48.15 -0.00914
48.2 -0.00421
48.25 0.00281
48.3 0.00731
48.35 0.01169
48.4 0.01119
48.45 0.00565
48.5 0.00549
48.55 0.00523
48.6 0.00453
48.65 0.00457
48.7 0.00533
48.75 0.00049
48.8 -0.00309
48.85 -0.00478
48.9 -0.00147
48.95 0.00114
49 0.0056
49.05 0.0033
49.1 -0.00261
49.15 -0.00961
49.2 -0.01365
49.25 -0.01488
49.3 -0.01848
49.35 -0.02115
49.4 -0.01715
49.45 -0.01307
49.5 -0.01155
49.55 -0.00661
49.6 -0.00181
49.65 0.00356
49.7 0.01073
49.75 0.01298
49.8 0.01627
49.85 0.01574
49.9 0.00972
49.95 0.00791
50 0.00435
50.05 0.00206
50.1 0.00056
50.15 -0.00182
50.2 -0.00354
50.25 -0.00018
50.3 0.00571
50.35 0.00646
50.4 0.00528
50.45 0.00244
50.5 -0.004
50.55 -0.00648
50.6 -0.00935
50.65 -0.00639
50.7 -0.00685
50.75 -0.0079
50.8 -0.00886
50.85 -0.01013
50.9 -0.00641
50.95 -0.00465
51 0.00076
51.05 0.00838
51.1 0.01088
51.15 0.00821
51.2 0.00301
51.25 -0.00068
51.3 -0.00342
51.35 -0.00627
51.4 -0.00488
51.45 -0.00031
51.5 -0.00214
51.55 -0.00263
51.6 -0.00594
51.65 -0.0081
51.7 -0.01302
51.75 -0.01262
51.8 -0.01348
51.85 -0.01292
51.9 -0.01284
51.95 -0.01153
52 -0.00558
52.05 -0.00486
52.1 -0.00138
52.15 0.00204
52.2 0.00059
52.25 0.0017
52.3 -0.00148
52.35 -0.00141
52.4 0.00169
52.45 0.00144
52.5 -0.00209
52.55 -0.00328
52.6 -0.00473
52.65 -0.00929
52.7 -0.01336
52.75 -0.01211
52.8 -0.00871
52.85 -0.00321
52.9 -0.00254
52.95 -0.00162
53 -0.00259
53.05 -0.00636
53.1 -0.01057
53.15 -0.01047
53.2 -0.00992
53.25 -0.00469
53.3 0.00184
53.35 0.00866
53.4 0.01311
53.45 0.01819
53.5 0.0228
53.55 0.0199
53.6 0.01738
53.65 0.01646
53.7 0.01759
53.75 0.01531
53.8 0.01069
53.85 0.0027
53.9 0.00098
53.95 -0.00459
54 -0.00636
54.05 -0.01021
54.1 -0.012
54.15 -0.01647
54.2 -0.02044
54.25 -0.01723
54.3 -0.01837
54.35 -0.01528
54.4 -0.01548
54.45 -0.01308
54.5 -0.01272
54.55 -0.00979
54.6 -0.00919
54.65 -0.00818
54.7 -0.00947
54.75 -0.00871
54.8 -0.00874
54.85 -0.00918
54.9 -0.01299
54.95 -0.01159
55 -0.0114
55.05 -0.00637
55.1 0.0007
55.15 0.00819
55.2 0.01691
55.25 0.01956
55.3 0.01838
55.35 0.01196
55.4 0.01013
55.45 0.00995
55.5 0.01116
55.55 0.00818
55.6 0.0023
55.65 0.00194
55.7 0.00012
55.75 -0.00524
55.8 -0.01278
55.85 -0.01539
55.9 -0.0129
55.95 -0.00878
56 -0.00553
56.05 -0.00414
56.1 -0.00183
56.15 0.00001
56.2 0.00464
56.25 0.00293
56.3 0.00134
56.35 -0.00277
56.4 -0.00196
56.45 -0.00346
56.5 -0.00588
56.55 -0.00731
56.6 -0.01012
56.65 -0.01224
56.7 -0.00799
56.75 -0.00396
56.8 0.00322
56.85 0.00851
56.9 0.00789
56.95 0.0087
57 0.00542
57.05 0.0007
57.1 -0
57.15 0.00027
57.2 0.0014
57.25 0.00534
57.3 0.01061
57.35 0.01642
57.4 0.01593
57.45 0.01125
57.5 0.00545
57.55 0.00272
57.6 -0.00263
57.65 -0.0065
57.7 -0.00777
57.75 -0.006
57.8 -0.00249
57.85 -0.00256
57.9 -0.00384
57.95 -0.00658
58 -0.01095
58.05 -0.01387
58.1 -0.01802
58.15 -0.02077
58.2 -0.01672
58.25 -0.01233
58.3 -0.01108
58.35 -0.0086
58.4 -0.00228
58.45 -0.0004
58.5 -0.00312
58.55 -0.0027
58.6 0.00144
58.65 0.00327
58.7 0.00381
58.75 0.00809
58.8 0.01169
58.85 0.01592
58.9 0.01311
58.95 0.01165
59 0.01269
59.05 0.00952
59.1 0.00706
59.15 0.00534
59.2 0.00777
59.25 0.00805
59.3 0.01185
59.35 0.00978
59.4 0.00439
59.45 0.00108
59.5 0.00258
59.55 0.00674
59.6 0.01006
59.65 0.00819
59.7 0.00835
59.75 0.00541
59.8 -0.00142
59.85 -0.0062
59.9 -0.00656
59.95 -0.00835
60 -0.00918
60.05 -0.00761
60.1 -0.00394
60.15 0.00117
60.2 0.00676
60.25 0.00707
60.3 0.00437
60.35 0.00263
60.4 0.00229
60.45 0.00455
60.5 0.00461
60.55 0.00604
60.6 0.00301
60.65 0.00033
60.7 -0.00258
60.75 -0.00735
60.8 -0.01113
60.85 -0.01198
60.9 -0.01249
60.95 -0.01256
61 -0.0074
61.05 -0.00319
61.1 -0.00376
61.15 -0.00823
61.2 -0.00829
61.25 -0.00864
61.3 -0.01069
61.35 -0.01222
61.4 -0.01204
61.45 -0.01456
61.5 -0.01942
61.55 -0.02221
61.6 -0.02535
61.65 -0.02098
61.7 -0.01732
61.75 -0.01615
61.8 -0.0182
61.85 -0.01538
61.9 -0.01365
61.95 -0.01233
62 -0.01396
62.05 -0.01328
62.1 -0.01131
62.15 -0.00445
62.2 0.00365
62.25 0.01189
62.3 0.01329
62.35 0.00924
62.4 0.00216
62.45 -0.00531
62.5 -0.00641
62.55 -0.00348
62.6 -0.00462
62.65 -0.00908
62.7 -0.01216
62.75 -0.01176
62.8 -0.01298
62.85 -0.01654
62.9 -0.01307
62.95 -0.01298
63 -0.01142
63.05 -0.01315
63.1 -0.00875
63.15 -0.00127
63.2 0.00455
63.25 0.00463
63.3 0.00101
63.35 -0.00406
63.4 -0.00429
63.45 0.00083
63.5 0.00551
63.55 0.01108
63.6 0.0181
63.65 0.02446
63.7 0.02273
63.75 0.02221
63.8 0.01739
63.85 0.0134
63.9 0.01015
63.95 0.00549
64 0.00216
64.05 0.00006
64.1 -0.00361
64.15 -0.00908
64.2 -0.00702
64.25 -0.00373
64.3 0.00348
64.35 0.0093
64.4 0.01462
64.45 0.01698
64.5 0.02148
64.55 0.02363
64.6 0.01965
64.65 0.01326
64.7 0.00729
64.75 0.00745
64.8 0.00926
64.85 0.00971
64.9 0.00572
64.95 0.00219
65 0.00089
65.05 0.00355
65.1 0.00215
65.15 -0.00053
65.2 -0.00361
65.25 -0.0055
65.3 -0.01026
65.35 -0.01131
65.4 -0.00918
65.45 -0.00747
65.5 -0.00542
65.55 -0.0022
65.6 0.00326
65.65 0.01047
65.7 0.01694
65.75 0.01541
65.8 0.01462
65.85 0.01309
65.9 0.01033
65.95 0.00955
66 0.00976
66.05 0.01294
66.1 0.00998
66.15 0.005
66.2 0.00315
66.25 -0.00289
66.3 -0.01064
66.35 -0.01491
66.4 -0.01468
66.45 -0.01269
66.5 -0.00959
66.55 -0.00835
66.6 -0.01141
66.65 -0.00957
66.7 -0.0046
66.75 0.0014
66.8 0.00304
66.85 0.00078
66.9 -0.00235
66.95 -0.00126
67 0.00296
67.05 0.00961
67.1 0.00969
67.15 0.00463
67.2 -0.00023
67.25 -0.00585
67.3 -0.01243
67.35 -0.01278
67.4 -0.01158
67.45 -0.01064
67.5 -0.01158
67.55 -0.01011
67.6 -0.00368
67.65 0.00457
67.7 0.01263
67.75 0.01837
67.8 0.01745
67.85 0.01481
67.9 0.00993
67.95 0.01035
68 0.0069
68.05 0.00692
68.1 0.00564
68.15 0.00756
68.2 0.00462
68.25 -0.00119
68.3 -0.00243
68.35 -0.00323
68.4 -0.00718
68.45 -0.00559
68.5 -0.00721
68.55 -0.00713
68.6 -0.00861
68.65 -0.00655
68.7 -0.00245
68.75 -0.00377
68.8 -0.0023
68.85 -0.00441
68.9 -0.00306
68.95 0.00071
69 0.00077
69.05 0.00344
69.1 0.00602
69.15 0.00642
69.2 0.00775
69.25 0.00705
69.3 0.00925
69.35 0.01158
69.4 0.01485
69.45 0.01917
69.5 0.01987
69.55 0.01448
69.6 0.01411
69.65 0.01672
69.7 0.01691
69.75 0.01153
69.8 0.00729
69.85 -0.00015
69.9 -0.00191
69.95 0.00149
70 0.00324
70.05 0.00223
70.1 0.00065
70.15 0.00298
70.2 0.00703
70.25 0.00482
70.3 -0.00107
70.35 -0.00084
70.4 0.0012
70.45 0.00044
70.5 0.0041
70.55 0.00775
70.6 0.01149
70.65 0.01203
70.7 0.00778
70.75 0.00494
70.8 -0.00103
70.85 -0.00184
70.9 -0.00295
70.95 -0.00133
71 -0.00441
71.05 -0.00305
71.1 -0.00239
71.15 0.00158
71.2 0.00792
71.25 0.01093
71.3 0.00766
71.35 0.00835
71.4 0.0114
71.45 0.01584
71.5 0.01961
71.55 0.02273
71.6 0.02294
71.65 0.02309
71.7 0.02246
71.75 0.02058
71.8 0.01603
71.85 0.00808
71.9 0.00071
71.95 -0.00283
72 -0.00695
72.05 -0.01179
72.1 -0.0108
72.15 -0.00656
72.2 -0.00242
72.25 -0.00331
72.3 -0.00333
72.35 -0.00433
72.4 -0.00971
72.45 -0.01216
72.5 -0.01301
72.55 -0.01237
72.6 -0.00785
72.65 -0.00054
72.7 0.00355
72.75 0.00909
72.8 0.0151
72.85 0.01594
72.9 0.01337
72.95 0.0137
73 0.01639
73.05 0.01381
73.1 0.01306
73.15 0.01049
73.2 0.00513
73.25 -0.00384
73.3 -0.00862
73.35 -0.01181
73.4 -0.01374
73.45 -0.01089
73.5 -0.00685
73.55 -0.005
73.6 -0.00119
73.65 0.00337
73.7 0.00662
73.75 0.00861
73.8 0.01214
73.85 0.01532
73.9 0.01278
73.95 0.01218
74 0.00758
74.05 0.00303
74.1 0.00003
74.15 0.00083
74.2 0.00462
74.25 0.00438
74.3 0.00675
74.35 0.00998
74.4 0.00768
74.45 0.00861
74.5 0.0083
74.55 0.00646
74.6 0.00644
74.65 0.00689
74.7 0.00373
74.75 0.00427
74.8 -0.00093
74.85 -0.00257
74.9 -0.00014
74.95 0.00305
75 0.00314
75.05 0.00414
75.1 0.00473
75.15 -0.00022
75.2 -0.00712
75.25 -0.01113
75.3 -0.00932
75.35 -0.00983
75.4 -0.00992
75.45 -0.01074
75.5 -0.01404
75.55 -0.01947
75.6 -0.0245
75.65 -0.0229
75.7 -0.02365
75.75 -0.02177
75.8 -0.01965
75.85 -0.02096
75.9 -0.01961
75.95 -0.01334
76 -0.00451
76.05 -0.00311
76.1 0.00157
76.15 0.00281
76.2 0.00012
76.25 -0.00007
76.3 -0.00487
76.35 -0.00345
76.4 -0.00105
76.45 -0.00423
76.5 -0.00963
76.55 -0.00859
76.6 -0.00705
76.65 -0.00202
76.7 -0.00339
76.75 -0.00753
76.8 -0.00543
76.85 0.00016
76.9 -0.00138
76.95 -0.00499
77 -0.0035
77.05 0.00123
77.1 0.0013
77.15 -0.00006
77.2 -0.00135
77.25 -0.00032
77.3 -0.00099
77.35 -0.00378
77.4 -0.00897
77.45 -0.01428
77.5 -0.01599
77.55 -0.01415
77.6 -0.01332
77.65 -0.00836
77.7 -0.00708
77.75 -0.00809
77.8 -0.00652
77.85 -0.0026
77.9 0.0003
77.95 0.00105
78 0.00193
78.05 -0.00206
78.1 -0.00081
78.15 0.00138
78.2 0.00655
78.25 0.01332
78.3 0.01512
78.35 0.01127
78.4 0.00492
78.45 -0.00313
78.5 -0.00978
78.55 -0.00944
78.6 -0.01299
78.65 -0.01244
78.7 -0.00971
78.75 -0.00289
78.8 0
78.85 -0.00289
78.9 -0.00167
78.95 -0.00086
79 -0.00301
79.05 -0.00305
79.1 -0.00234
79.15 -0.00389
79.2 -0.00693
79.25 -0.01065
79.3 -0.01258
79.35 -0.0112
79.4 -0.01224
79.45 -0.00993
79.5 -0.00813
79.55 -0.00466
79.6 -0.00687
79.65 -0.01053
79.7 -0.01208
79.75 -0.01648
79.8 -0.01354
79.85 -0.01316
79.9 -0.0077
79.95 -0.00321
80 -0.00023
80.05 0.00093
80.1 -0.0007
80.15 0.00036
80.2 -0.00204
80.25 -0.00157
80.3 -0.00112
80.35 0.00359
80.4 0.01022
80.45 0.01223
80.5 0.0131
80.55 0.0168
80.6 0.01359
80.65 0.00937
80.7 0.00192
80.75 -0.00031
80.8 0.00232
80.85 0.00662
80.9 0.00951
80.95 0.00777
81 0.00577
81.05 0.00249
81.1 0.00002
81.15 -0.00147
81.2 0.00007
81.25 -0.00066
81.3 -0.00175
81.35 -0.00703
81.4 -0.00964
81.45 -0.00695
81.5 -0.00447
81.55 0.00029
81.6 0.00377
81.65 0.00848
81.7 0.00867
81.75 0.00826
81.8 0.00871
81.85 0.00851
81.9 0.01132
81.95 0.00984
82 0.0079
82.05 0.01
82.1 0.01145
82.15 0.01007
82.2 0.00966
82.25 0.00705
82.3 0.00592
82.35 0.00389
82.4 -0.00003
82.45 -0.00578
82.5 -0.0058
82.55 -0.00198
82.6 0.00076
82.65 0.00041
82.7 -0.00029
82.75 -0.00222
82.8 -0.0062
82.85 -0.01056
82.9 -0.01182
82.95 -0.01459
83 -0.01741
83.05 -0.02068
83.1 -0.02284
83.15 -0.02636
83.2 -0.031
83.25 -0.02746
83.3 -0.02752
83.35 -0.02115
83.4 -0.01885
83.45 -0.01871
83.5 -0.01285
83.55 -0.00492
83.6 0.00478
83.65 0.0126
83.7 0.0164
83.75 0.02195
83.8 0.02573
83.85 0.03038
83.9 0.02964
83.95 0.02252
84 0.01168
84.05 0.003
84.1 -0.00565
84.15 -0.00722
84.2 -0.00866
84.25 -0.01123
84.3 -0.01046
84.35 -0.01149
84.4 -0.01373
84.45 -0.01288
84.5 -0.0132
84.55 -0.00894
84.6 -0.00829
84.65 -0.00427
84.7 -0.00594
84.75 -0.00823
84.8 -0.012
84.85 -0.018
84.9 -0.02439
84.95 -0.0268
85 -0.02393
85.05 -0.01947
85.1 -0.01523
85.15 -0.01522
85.2 -0.01302
85.25 -0.00852
85.3 -0.00046
85.35 0.00096
85.4 0.00413
85.45 0.00439
85.5 0.00598
85.55 0.01023
85.6 0.01159
85.65 0.01449
85.7 0.01794
85.75 0.01789
85.8 0.01247
85.85 0.00498
85.9 -0.00188
85.95 -0.0025
86 -0.00021
86.05 0.00406
86.1 0.01002
86.15 0.00899
86.2 0.00687
86.25 0.00546
86.3 0.00117
86.35 0.0008
86.4 -0.00056
86.45 -0.00341
86.5 -0.00565
86.55 -0.01106
86.6 -0.01007
86.65 -0.00761
86.7 -0.00721
86.75 -0.00624
86.8 -0.00884
86.85 -0.00774
86.9 -0.00781
86.95 -0.00359
87 -0.00118
87.05 -0.00013
87.1 -0.002
87.15 -0.00237
87.2 -0.0067
87.25 -0.00668
87.3 -0.01002
87.35 -0.00756
87.4 -0.00244
87.45 -0.00352
87.5 -0.0042
87.55 -0.00034
87.6 0.00097
87.65 -0.00049
87.7 -0.00228
87.75 -0.00578
87.8 -0.00997
87.85 -0.01366
87.9 -0.01044
87.95 -0.00708
88 -0.00491
88.05 -0.00197
88.1 -0.00437
88.15 -0.00177
88.2 -0.00395
88.25 -0.00468
88.3 -0.00221
88.35 0.00302
88.4 0.00986
88.45 0.01132
88.5 0.01284
88.55 0.0144
88.6 0.01418
88.65 0.01589
88.7 0.01353
88.75 0.00998
88.8 0.00934
88.85 0.01203
88.9 0.01584
88.95 0.01592
89 0.01538
89.05 0.01422
89.1 0.00807
89.15 0.00421
89.2 -0.00184
89.25 -0.00971
89.3 -0.01372
89.35 -0.01276
89.4 -0.01229
89.45 -0.01426
89.5 -0.011
89.55 -0.00796
89.6 -0.00795
89.65 -0.00966
89.7 -0.01108
89.75 -0.00998
89.8 -0.00456
89.85 -0.00322
89.9 -0.00449
89.95 -0.00861
90 -0.00956
90.05 -0.00755
90.1 -0.00711
90.15 -0.00995
90.2 -0.0116
90.25 -0.01304
90.3 -0.01614
90.35 -0.01311
90.4 -0.01192
90.45 -0.00594
90.5 0.00025
90.55 0.00229
90.6 0.00676
90.65 0.01008
90.7 0.00897
90.75 0.00767
90.8 0.01053
90.85 0.01317
90.9 0.01756
90.95 0.01637
91 0.01607
91.05 0.01895
91.1 0.0232
91.15 0.02377
91.2 0.02505
91.25 0.02805
91.3 0.03042
91.35 0.02787
91.4 0.02546
91.45 0.01858
91.5 0.01008
91.55 0.00792
91.6 0.00843
91.65 0.00838
91.7 0.00321
91.75 0.00222
91.8 0.00348
91.85 0.00112
91.9 0.00343
91.95 0.00381
92 0.00417
92.05 0.00732
92.1 0.01
92.15 0.0072
92.2 0.00435
92.25 -0.00074
92.3 -0.00067
92.35 0.00116
92.4 0.00319
92.45 0.0081
92.5 0.0103
92.55 0.00925
92.6 0.01018
92.65 0.01377
92.7 0.01116
92.75 0.00854
92.8 0.00641
92.85 0.00354
92.9 0.00212
92.95 -0.00019
93 0.00013
93.05 -0.00217
93.1 -0.00361
93.15 -0.00296
93.2 -0.00628
93.25 -0.00958
93.3 -0.00849
93.35 -0.00903
93.4 -0.00895
93.45 -0.00967
93.5 -0.00803
93.55 -0.00666
93.6 -0.00321
93.65 -0.00242
93.7 -0.00471
93.75 -0.00191
93.8 -0.00411
93.85 -0.00554
93.9 -0.00627
93.95 -0.01017
94 -0.00877
94.05 -0.00775
94.1 -0.00715
94.15 -0.00424
94.2 -0.00487
94.25 -0.00398
94.3 -0.00798
94.35 -0.00815
94.4 -0.00663
94.45 -0.00303
94.5 0.00043
94.55 -0.00175
94.6 -0.0032
94.65 -0.00678
94.7 -0.00802
94.75 -0.00484
94.8 -0.00335
94.85 -0.00379
94.9 -0.0061
94.95 -0.01038
95 -0.00962
95.05 -0.00419
95.1 -0.0019
95.15 0.00105
95.2 -0.00047
95.25 0.00003
95.3 -0.00215
95.35 -0.00336
95.4 -0.00457
95.45 -0.00687
95.5 -0.01047
95.55 -0.00874
95.6 -0.00367
95.65 0.00404
95.7 0.0121
95.75 0.01466
95.8 0.01665
95.85 0.02072
95.9 0.02087
95.95 0.02203
96 0.02169
96.05 0.01754
96.1 0.01757
96.15 0.01604
96.2 0.01369
96.25 0.01404
96.3 0.01033
96.35 0.00938
96.4 0.00662
96.45 0.00594
96.5 0.00375
96.55 -0.00226
96.6 -0.00336
96.65 -0.00692
96.7 -0.00814
96.75 -0.01066
96.8 -0.01005
96.85 -0.01091
96.9 -0.00949
96.95 -0.01194
97 -0.01541
97.05 -0.01656
97.1 -0.01965
97.15 -0.02164
97.2 -0.01962
97.25 -0.01957
97.3 -0.02007
97.35 -0.01718
97.4 -0.01278
97.45 -0.00499
97.5 0.00451
97.55 0.01184
97.6 0.01607
97.65 0.02054
97.7 0.01863
97.75 0.01419
97.8 0.01367
97.85 0.00845
97.9 0.00651
97.95 0.00642
98 0.00337
98.05 -0.00321
98.1 -0.00917
98.15 -0.00948
98.2 -0.00474
98.25 -0.00236
98.3 -0.00233
98.35 -0.00516
98.4 -0.00798
98.45 -0.00765
98.5 -0.00329
98.55 -0.00189
98.6 -0.00532
98.65 -0.00947
98.7 -0.0082
98.75 -0.00937
98.8 -0.00925
98.85 -0.01328
98.9 -0.01144
98.95 -0.00553
99 -0.0055
99.05 -0.00902
99.1 -0.0062
99.15 -0.0043
99.2 -0.00509
99.25 -0.00131
99.3 0.00052
99.35 0.00486
99.4 0.00991
99.45 0.01542
99.5 0.02072
99.55 0.02417
99.6 0.02751
99.65 0.03103
99.7 0.0283
99.75 0.02753
99.8 0.02307
99.85 0.01672
99.9 0.01473
99.95 0.01438
